Sensor Type	RTD
Model Number	PT1000
Serial Number	(Standard)
Current	1000
Number of Data Points	29

Temperature	Data
30	35.7
32	39.97
36	49.53
38	54.8
40	60.38
42	66.35
46	79.11
52	100.55
58	123.9
65	151.8
75	193.19
85	236.18
105	321.16
140	467.07
180	630.28
210	750.72
270	987.68
315	1162.55
355	1316.03
400	1486.48
445	1654.59
490	1820.36
535	1983.79
585	2162.64
630	2321.14
675	2477.29
715	2614.14
760	2765.87
800	2898.79